0 0.346875 0.164062 0.348438 0.165625 0.346875 0.167187 0.348438 0.168750 0.346875 0.170313 0.345313 0.170313 0.343750 0.168750 0.340625 0.168750 0.339062 0.167187 0.340625 0.165625 0.343750 0.165625 0.339062 0.165625 0.339062 0.170313 0.337500 0.171875 0.328125 0.171875 0.326562 0.173437 0.325000 0.173437 0.323437 0.171875 0.323437 0.173437 0.321875 0.175000 0.320312 0.173437 0.320312 0.171875 0.320312 0.173437 0.318750 0.175000 0.317188 0.173437 0.317188 0.171875 0.315625 0.171875 0.317188 0.173437 0.314063 0.176563 0.310937 0.176563 0.309375 0.175000 0.312500 0.171875 0.309375 0.175000 0.306250 0.171875 0.304688 0.171875 0.306250 0.173437 0.307812 0.173437 0.309375 0.175000 0.307812 0.176563 0.304688 0.176563 0.303125 0.175000 0.304688 0.176563 0.303125 0.178125 0.301563 0.178125 0.300000 0.179688 0.287500 0.179688 0.284375 0.182812 0.282813 0.182812 0.279687 0.179688 0.279687 0.181250 0.281250 0.182812 0.279687 0.184375 0.278125 0.184375 0.273438 0.179688 0.273438 0.181250 0.275000 0.182812 0.273438 0.184375 0.271875 0.184375 0.270313 0.185938 0.264062 0.185938 0.262500 0.187500 0.259375 0.187500 0.257812 0.189062 0.256250 0.187500 0.254688 0.187500 0.253125 0.189062 0.251563 0.189062 0.250000 0.187500 0.243750 0.187500 0.250000 0.187500 0.251563 0.189062 0.251563 0.190625 0.250000 0.192188 0.248438 0.190625 0.243750 0.190625 0.243750 0.193750 0.242188 0.195312 0.240625 0.193750 0.239063 0.195312 0.235937 0.195312 0.234375 0.196875 0.232813 0.195312 0.232813 0.193750 0.232813 0.195312 0.231250 0.196875 0.234375 0.200000 0.232813 0.201563 0.231250 0.201563 0.229687 0.203125 0.228125 0.201563 0.226562 0.201563 0.228125 0.201563 0.229687 0.203125 0.226562 0.206250 0.223438 0.203125 0.223438 0.204687 0.225000 0.206250 0.221875 0.209375 0.220312 0.207813 0.220312 0.201563 0.220312 0.207813 0.218750 0.209375 0.215625 0.209375 0.214062 0.210938 0.212500 0.210938 0.210938 0.209375 0.207813 0.209375 0.209375 0.209375 0.210938 0.210938 0.212500 0.210938 0.214062 0.212500 0.212500 0.214062 0.209375 0.214062 0.207813 0.212500 0.207813 0.214062 0.209375 0.215625 0.206250 0.218750 0.204687 0.217188 0.200000 0.217188 0.200000 0.220312 0.195312 0.225000 0.192188 0.225000 0.190625 0.226562 0.189062 0.225000 0.187500 0.226562 0.185938 0.225000 0.187500 0.226562 0.185938 0.228125 0.184375 0.228125 0.184375 0.229687 0.181250 0.232813 0.176563 0.232813 0.175000 0.231250 0.173437 0.231250 0.173437 0.234375 0.171875 0.235937 0.171875 0.237500 0.170313 0.239063 0.168750 0.239063 0.167187 0.240625 0.165625 0.240625 0.164062 0.239063 0.165625 0.240625 0.164062 0.242188 0.162500 0.242188 0.160938 0.240625 0.160938 0.239063 0.159375 0.240625 0.157812 0.239063 0.157812 0.242188 0.156250 0.243750 0.154688 0.243750 0.154688 0.246875 0.153125 0.248438 0.151562 0.248438 0.150000 0.246875 0.146875 0.246875 0.150000 0.250000 0.148438 0.251563 0.145313 0.251563 0.143750 0.250000 0.143750 0.246875 0.142187 0.248438 0.142187 0.250000 0.143750 0.250000 0.145313 0.251563 0.145313 0.253125 0.143750 0.254688 0.142187 0.253125 0.135937 0.259375 0.132812 0.256250 0.131250 0.256250 0.131250 0.257812 0.126562 0.262500 0.118750 0.262500 0.120313 0.264062 0.118750 0.265625 0.118750 0.268750 0.117188 0.270313 0.115625 0.268750 0.114062 0.270313 0.112500 0.268750 0.110937 0.270313 0.112500 0.271875 0.110937 0.273438 0.109375 0.273438 0.107813 0.271875 0.106250 0.271875 0.106250 0.273438 0.107813 0.275000 0.106250 0.276562 0.104688 0.276562 0.101562 0.279687 0.100000 0.278125 0.100000 0.276562 0.098437 0.276562 0.098437 0.278125 0.096875 0.279687 0.095312 0.278125 0.095312 0.276562 0.095312 0.278125 0.096875 0.279687 0.096875 0.281250 0.093750 0.284375 0.092188 0.284375 0.090625 0.285938 0.089063 0.285938 0.090625 0.287500 0.089063 0.289062 0.090625 0.290625 0.090625 0.292187 0.087500 0.295312 0.085938 0.293750 0.085938 0.292187 0.084375 0.292187 0.082812 0.293750 0.082812 0.295312 0.084375 0.296875 0.082812 0.298438 0.084375 0.300000 0.082812 0.301563 0.081250 0.301563 0.079687 0.303125 0.076563 0.300000 0.078125 0.301563 0.078125 0.303125 0.076563 0.304688 0.078125 0.303125 0.079687 0.303125 0.081250 0.304688 0.078125 0.307812 0.076563 0.307812 0.075000 0.309375 0.071875 0.306250 0.071875 0.309375 0.070312 0.310937 0.071875 0.312500 0.073438 0.312500 0.075000 0.314063 0.073438 0.315625 0.071875 0.315625 0.071875 0.317188 0.070312 0.318750 0.071875 0.320312 0.071875 0.323437 0.073438 0.325000 0.071875 0.326562 0.073438 0.328125 0.071875 0.329688 0.073438 0.331250 0.071875 0.332813 0.073438 0.331250 0.075000 0.332813 0.075000 0.334375 0.078125 0.337500 0.076563 0.339062 0.079687 0.342187 0.078125 0.343750 0.076563 0.343750 0.078125 0.345313 0.076563 0.346875 0.078125 0.346875 0.079687 0.348438 0.078125 0.350000 0.081250 0.350000 0.082812 0.351562 0.082812 0.354687 0.084375 0.356250 0.084375 0.359375 0.085938 0.360938 0.085938 0.362500 0.082812 0.365625 0.082812 0.367188 0.084375 0.368750 0.084375 0.370312 0.082812 0.371875 0.084375 0.370312 0.085938 0.371875 0.085938 0.370312 0.087500 0.368750 0.090625 0.371875 0.089063 0.373437 0.090625 0.375000 0.089063 0.376563 0.089063 0.378125 0.089063 0.376563 0.090625 0.375000 0.092188 0.376563 0.092188 0.379688 0.089063 0.382812 0.090625 0.382812 0.092188 0.384375 0.092188 0.385937 0.093750 0.385937 0.095312 0.387500 0.095312 0.390625 0.096875 0.392188 0.095312 0.393750 0.095312 0.395313 0.096875 0.393750 0.098437 0.395313 0.098437 0.396875 0.096875 0.398438 0.095312 0.398438 0.096875 0.398438 0.098437 0.400000 0.096875 0.401562 0.095312 0.401562 0.095312 0.403125 0.096875 0.401562 0.098437 0.401562 0.100000 0.403125 0.100000 0.404687 0.101562 0.406250 0.101562 0.407813 0.103125 0.409375 0.101562 0.410938 0.101562 0.414062 0.100000 0.415625 0.103125 0.412500 0.104688 0.414062 0.104688 0.415625 0.100000 0.420312 0.101562 0.421875 0.101562 0.423438 0.103125 0.423438 0.104688 0.425000 0.106250 0.423438 0.107813 0.425000 0.107813 0.428125 0.109375 0.429688 0.107813 0.431250 0.106250 0.431250 0.107813 0.432812 0.107813 0.434375 0.106250 0.435937 0.106250 0.440625 0.107813 0.442188 0.109375 0.442188 0.110937 0.443750 0.110937 0.446875 0.112500 0.445312 0.114062 0.446875 0.114062 0.448437 0.112500 0.450000 0.112500 0.451562 0.115625 0.454688 0.112500 0.457813 0.112500 0.459375 0.114062 0.460938 0.117188 0.460938 0.118750 0.462500 0.118750 0.471875 0.120313 0.473438 0.118750 0.475000 0.120313 0.473438 0.123438 0.476562 0.123438 0.479687 0.121875 0.481250 0.120313 0.479687 0.121875 0.481250 0.118750 0.484375 0.121875 0.481250 0.125000 0.484375 0.125000 0.490625 0.126562 0.490625 0.128125 0.492188 0.128125 0.493750 0.126562 0.495312 0.125000 0.493750 0.126562 0.495312 0.125000 0.496875 0.129688 0.496875 0.131250 0.498437 0.131250 0.500000 0.129688 0.501563 0.131250 0.501563 0.132812 0.503125 0.131250 0.504687 0.131250 0.506250 0.134375 0.506250 0.135937 0.507812 0.135937 0.510938 0.137500 0.512500 0.137500 0.514062 0.135937 0.515625 0.135937 0.517188 0.135937 0.515625 0.137500 0.514062 0.139063 0.515625 0.139063 0.518750 0.135937 0.521875 0.139063 0.521875 0.137500 0.520312 0.139063 0.518750 0.140625 0.518750 0.142187 0.520312 0.142187 0.526563 0.143750 0.528125 0.142187 0.529687 0.143750 0.529687 0.145313 0.528125 0.146875 0.529687 0.146875 0.531250 0.145313 0.532813 0.143750 0.532813 0.142187 0.534375 0.142187 0.535937 0.143750 0.535937 0.146875 0.532813 0.148438 0.534375 0.148438 0.543750 0.150000 0.543750 0.151562 0.542188 0.153125 0.543750 0.153125 0.545312 0.154688 0.546875 0.154688 0.557813 0.156250 0.559375 0.159375 0.559375 0.162500 0.562500 0.160938 0.564063 0.160938 0.565625 0.165625 0.565625 0.167187 0.567187 0.165625 0.568750 0.167187 0.570312 0.168750 0.570312 0.170313 0.571875 0.168750 0.573438 0.167187 0.573438 0.165625 0.575000 0.167187 0.573438 0.170313 0.573438 0.171875 0.575000 0.171875 0.576562 0.173437 0.578125 0.171875 0.579688 0.171875 0.581250 0.171875 0.579688 0.173437 0.578125 0.175000 0.579688 0.175000 0.581250 0.176563 0.581250 0.178125 0.582812 0.178125 0.584375 0.181250 0.587500 0.179688 0.589063 0.178125 0.589063 0.179688 0.589063 0.181250 0.587500 0.184375 0.590625 0.184375 0.593750 0.185938 0.595313 0.184375 0.596875 0.184375 0.600000 0.187500 0.600000 0.189062 0.601562 0.187500 0.603125 0.184375 0.603125 0.185938 0.603125 0.192188 0.609375 0.193750 0.607812 0.195312 0.609375 0.196875 0.609375 0.198437 0.610938 0.198437 0.612500 0.196875 0.614062 0.195312 0.614062 0.196875 0.615625 0.195312 0.617188 0.196875 0.615625 0.198437 0.617188 0.198437 0.618750 0.200000 0.617188 0.201563 0.618750 0.206250 0.618750 0.212500 0.625000 0.212500 0.626563 0.212500 0.625000 0.214062 0.623437 0.217188 0.626563 0.218750 0.625000 0.223438 0.629687 0.221875 0.631250 0.221875 0.632812 0.220312 0.634375 0.221875 0.634375 0.223438 0.632812 0.226562 0.632812 0.228125 0.634375 0.229687 0.634375 0.231250 0.632812 0.232813 0.634375 0.237500 0.634375 0.239063 0.635938 0.240625 0.635938 0.242188 0.637500 0.239063 0.640625 0.237500 0.639062 0.239063 0.640625 0.237500 0.642188 0.240625 0.639062 0.242188 0.640625 0.242188 0.642188 0.243750 0.640625 0.248438 0.640625 0.250000 0.642188 0.253125 0.642188 0.254688 0.643750 0.254688 0.645312 0.256250 0.646875 0.254688 0.645312 0.254688 0.643750 0.256250 0.642188 0.257812 0.642188 0.259375 0.643750 0.259375 0.645312 0.260937 0.646875 0.259375 0.648438 0.260937 0.646875 0.262500 0.646875 0.264062 0.648438 0.265625 0.646875 0.264062 0.645312 0.265625 0.643750 0.271875 0.643750 0.275000 0.646875 0.273438 0.648438 0.275000 0.646875 0.278125 0.646875 0.279687 0.648438 0.281250 0.646875 0.282813 0.648438 0.282813 0.650000 0.282813 0.648438 0.281250 0.646875 0.282813 0.645312 0.285938 0.645312 0.287500 0.646875 0.289062 0.646875 0.290625 0.648438 0.293750 0.648438 0.295312 0.646875 0.300000 0.646875 0.301563 0.648438 0.306250 0.648438 0.307812 0.650000 0.314063 0.650000 0.315625 0.651563 0.315625 0.653125 0.317188 0.654687 0.315625 0.656250 0.314063 0.656250 0.315625 0.656250 0.317188 0.654687 0.318750 0.656250 0.318750 0.654687 0.321875 0.651563 0.325000 0.654687 0.323437 0.656250 0.321875 0.656250 0.325000 0.656250 0.326562 0.654687 0.328125 0.656250 0.329688 0.656250 0.331250 0.654687 0.332813 0.656250 0.334375 0.656250 0.335938 0.654687 0.337500 0.654687 0.339062 0.653125 0.340625 0.654687 0.342187 0.654687 0.343750 0.656250 0.351562 0.656250 0.353125 0.657813 0.353125 0.659375 0.351562 0.660937 0.353125 0.659375 0.354687 0.660937 0.354687 0.662500 0.356250 0.662500 0.357812 0.660937 0.362500 0.665625 0.362500 0.667188 0.365625 0.667188 0.367188 0.668750 0.367188 0.670312 0.365625 0.671875 0.364063 0.670312 0.362500 0.670312 0.364063 0.671875 0.365625 0.671875 0.367188 0.670312 0.368750 0.671875 0.370312 0.670312 0.373437 0.673438 0.373437 0.675000 0.375000 0.675000 0.376563 0.676562 0.375000 0.678125 0.373437 0.678125 0.375000 0.678125 0.376563 0.676562 0.378125 0.676562 0.379688 0.678125 0.378125 0.679688 0.379688 0.678125 0.381250 0.679688 0.382812 0.678125 0.385937 0.681250 0.387500 0.681250 0.389062 0.682813 0.387500 0.684375 0.385937 0.684375 0.385937 0.685937 0.390625 0.681250 0.392188 0.682813 0.392188 0.684375 0.393750 0.684375 0.395313 0.685937 0.396875 0.684375 0.401562 0.684375 0.403125 0.685937 0.406250 0.685937 0.407813 0.687500 0.409375 0.687500 0.410938 0.689063 0.409375 0.690625 0.410938 0.692187 0.409375 0.693750 0.410938 0.693750 0.410938 0.692187 0.412500 0.690625 0.414062 0.692187 0.415625 0.692187 0.417187 0.693750 0.418750 0.693750 0.420312 0.692187 0.421875 0.693750 0.423438 0.692187 0.426563 0.692187 0.428125 0.693750 0.443750 0.693750 0.445312 0.692187 0.457813 0.692187 0.459375 0.693750 0.460938 0.693750 0.462500 0.692187 0.470313 0.692187 0.471875 0.693750 0.470313 0.692187 0.471875 0.690625 0.479687 0.690625 0.481250 0.692187 0.482812 0.692187 0.484375 0.693750 0.485938 0.692187 0.492188 0.692187 0.493750 0.693750 0.495312 0.693750 0.496875 0.692187 0.503125 0.692187 0.504687 0.693750 0.506250 0.692187 0.507812 0.693750 0.509375 0.693750 0.507812 0.693750 0.506250 0.692187 0.507812 0.690625 0.509375 0.690625 0.509375 0.689063 0.510938 0.687500 0.545312 0.687500 0.546875 0.685937 0.573438 0.685937 0.575000 0.684375 0.592187 0.684375 0.593750 0.685937 0.595313 0.684375 0.596875 0.684375 0.598437 0.685937 0.601562 0.685937 0.600000 0.684375 0.601562 0.682813 0.603125 0.682813 0.604688 0.684375 0.604688 0.685937 0.606250 0.684375 0.607812 0.685937 0.609375 0.684375 0.610938 0.685937 0.612500 0.685937 0.610938 0.685937 0.609375 0.684375 0.607812 0.685937 0.606250 0.684375 0.606250 0.682813 0.607812 0.681250 0.609375 0.681250 0.610938 0.679688 0.615625 0.684375 0.615625 0.681250 0.618750 0.678125 0.625000 0.678125 0.626563 0.676562 0.628125 0.676562 0.629687 0.675000 0.631250 0.676562 0.631250 0.678125 0.632812 0.678125 0.632812 0.676562 0.634375 0.675000 0.639062 0.675000 0.640625 0.676562 0.639062 0.678125 0.637500 0.678125 0.640625 0.678125 0.642188 0.676562 0.643750 0.678125 0.645312 0.678125 0.643750 0.676562 0.643750 0.675000 0.648438 0.670312 0.650000 0.671875 0.651563 0.670312 0.656250 0.670312 0.657813 0.671875 0.659375 0.670312 0.665625 0.670312 0.667188 0.671875 0.668750 0.670312 0.668750 0.665625 0.667188 0.664062 0.668750 0.662500 0.668750 0.660937 0.667188 0.659375 0.670312 0.656250 0.668750 0.654687 0.671875 0.651563 0.673438 0.651563 0.675000 0.653125 0.675000 0.654687 0.673438 0.656250 0.675000 0.654687 0.675000 0.650000 0.673438 0.648438 0.673438 0.643750 0.675000 0.642188 0.673438 0.640625 0.673438 0.639062 0.675000 0.637500 0.675000 0.635938 0.673438 0.634375 0.675000 0.632812 0.671875 0.629687 0.671875 0.628125 0.673438 0.626563 0.675000 0.628125 0.675000 0.626563 0.673438 0.625000 0.673438 0.623437 0.675000 0.621875 0.673438 0.623437 0.670312 0.620313 0.671875 0.618750 0.670312 0.617188 0.670312 0.615625 0.668750 0.614062 0.668750 0.607812 0.667188 0.606250 0.667188 0.604688 0.668750 0.603125 0.668750 0.598437 0.667188 0.598437 0.665625 0.596875 0.667188 0.595313 0.668750 0.595313 0.668750 0.593750 0.665625 0.593750 0.664062 0.592187 0.665625 0.590625 0.667188 0.590625 0.668750 0.589063 0.668750 0.587500 0.665625 0.590625 0.664062 0.589063 0.664062 0.587500 0.667188 0.584375 0.668750 0.584375 0.667188 0.584375 0.665625 0.582812 0.664062 0.584375 0.662500 0.582812 0.662500 0.578125 0.657813 0.573438 0.657813 0.571875 0.654687 0.568750 0.654687 0.567187 0.656250 0.565625 0.657813 0.567187 0.656250 0.565625 0.657813 0.564063 0.657813 0.562500 0.656250 0.562500 0.657813 0.564063 0.656250 0.565625 0.654687 0.565625 0.653125 0.564063 0.653125 0.560937 0.651563 0.559375 0.651563 0.556250 0.650000 0.554688 0.650000 0.553125 0.651563 0.551562 0.650000 0.551562 0.648438 0.550000 0.650000 0.548438 0.648438 0.548438 0.646875 0.546875 0.648438 0.545312 0.646875 0.545312 0.645312 0.543750 0.645312 0.540625 0.643750 0.539062 0.645312 0.537500 0.643750 0.535937 0.645312 0.534375 0.643750 0.532813 0.643750 0.531250 0.642188 0.532813 0.640625 0.531250 0.640625 0.529687 0.639062 0.528125 0.639062 0.526563 0.637500 0.525000 0.639062 0.523438 0.639062 0.520312 0.637500 0.518750 0.637500 0.517188 0.639062 0.515625 0.637500 0.517188 0.635938 0.517188 0.634375 0.515625 0.634375 0.514062 0.632812 0.512500 0.632812 0.509375 0.631250 0.507812 0.634375 0.504687 0.631250 0.501563 0.629687 0.501563 0.628125 0.500000 0.628125 0.498437 0.626563 0.496875 0.626563 0.493750 0.625000 0.492188 0.626563 0.490625 0.625000 0.490625 0.623437 0.489063 0.626563 0.485938 0.626563 0.484375 0.625000 0.482812 0.625000 0.481250 0.626563 0.479687 0.628125 0.481250 0.628125 0.478125 0.626563 0.478125 0.626563 0.479687 0.625000 0.481250 0.623437 0.479687 0.623437 0.478125 0.621875 0.479687 0.620313 0.478125 0.620313 0.476562 0.621875 0.475000 0.620313 0.475000 0.618750 0.473438 0.618750 0.468750 0.620313 0.467187 0.621875 0.468750 0.621875 0.471875 0.621875 0.467187 0.620313 0.465625 0.621875 0.464062 0.620313 0.465625 0.618750 0.464062 0.618750 0.465625 0.617188 0.467187 0.615625 0.465625 0.615625 0.464062 0.614062 0.462500 0.614062 0.460938 0.615625 0.459375 0.614062 0.460938 0.612500 0.459375 0.612500 0.454688 0.614062 0.453125 0.614062 0.450000 0.615625 0.448437 0.614062 0.448437 0.614062 0.450000 0.612500 0.451562 0.609375 0.448437 0.609375 0.446875 0.607812 0.445312 0.607812 0.443750 0.606250 0.442188 0.606250 0.439063 0.607812 0.437500 0.609375 0.439063 0.607812 0.437500 0.609375 0.435937 0.607812 0.437500 0.606250 0.435937 0.606250 0.434375 0.604688 0.434375 0.603125 0.432812 0.604688 0.431250 0.604688 0.429688 0.601562 0.426563 0.600000 0.428125 0.598437 0.426563 0.598437 0.425000 0.596875 0.423438 0.596875 0.421875 0.595313 0.420312 0.596875 0.418750 0.598437 0.418750 0.598437 0.415625 0.596875 0.417187 0.596875 0.418750 0.595313 0.420312 0.593750 0.418750 0.593750 0.415625 0.590625 0.412500 0.592187 0.410938 0.592187 0.409375 0.590625 0.407813 0.592187 0.406250 0.590625 0.404687 0.590625 0.403125 0.589063 0.404687 0.587500 0.403125 0.585938 0.403125 0.584375 0.401562 0.585938 0.400000 0.582812 0.396875 0.578125 0.396875 0.576562 0.395313 0.578125 0.393750 0.579688 0.393750 0.579688 0.390625 0.575000 0.390625 0.573438 0.389062 0.573438 0.387500 0.575000 0.385937 0.573438 0.384375 0.575000 0.382812 0.571875 0.382812 0.571875 0.384375 0.570312 0.385937 0.568750 0.384375 0.568750 0.382812 0.567187 0.382812 0.564063 0.379688 0.565625 0.378125 0.565625 0.376563 0.567187 0.375000 0.568750 0.376563 0.568750 0.373437 0.567187 0.373437 0.567187 0.375000 0.565625 0.376563 0.564063 0.375000 0.564063 0.373437 0.562500 0.375000 0.560937 0.375000 0.559375 0.373437 0.557813 0.373437 0.556250 0.371875 0.556250 0.370312 0.554688 0.370312 0.553125 0.368750 0.554688 0.367188 0.556250 0.367188 0.554688 0.365625 0.556250 0.364063 0.556250 0.362500 0.556250 0.364063 0.554688 0.365625 0.551562 0.362500 0.554688 0.359375 0.551562 0.359375 0.550000 0.357812 0.550000 0.348438 0.548438 0.346875 0.548438 0.345313 0.550000 0.343750 0.550000 0.340625 0.548438 0.342187 0.548438 0.343750 0.546875 0.345313 0.545312 0.343750 0.545312 0.340625 0.543750 0.339062 0.545312 0.337500 0.550000 0.337500 0.548438 0.337500 0.546875 0.335938 0.545312 0.337500 0.543750 0.335938 0.543750 0.334375 0.542188 0.332813 0.542188 0.331250 0.543750 0.329688 0.543750 0.328125 0.545312 0.326562 0.543750 0.328125 0.542188 0.326562 0.542188 0.321875 0.540625 0.323437 0.535937 0.318750 0.537500 0.317188 0.537500 0.314063 0.534375 0.314063 0.532813 0.312500 0.532813 0.303125 0.531250 0.301563 0.532813 0.300000 0.531250 0.301563 0.531250 0.304688 0.529687 0.306250 0.528125 0.304688 0.528125 0.301563 0.526563 0.301563 0.525000 0.300000 0.526563 0.298438 0.526563 0.296875 0.525000 0.295312 0.526563 0.293750 0.526563 0.292187 0.525000 0.293750 0.523438 0.292187 0.521875 0.293750 0.520312 0.292187 0.520312 0.290625 0.517188 0.287500 0.517188 0.285938 0.518750 0.284375 0.520312 0.285938 0.518750 0.284375 0.515625 0.284375 0.514062 0.282813 0.514062 0.279687 0.512500 0.279687 0.510938 0.278125 0.512500 0.276562 0.510938 0.276562 0.507812 0.273438 0.507812 0.270313 0.506250 0.268750 0.507812 0.267188 0.506250 0.265625 0.506250 0.264062 0.504687 0.262500 0.504687 0.260937 0.503125 0.259375 0.503125 0.256250 0.501563 0.254688 0.501563 0.257812 0.503125 0.259375 0.501563 0.260937 0.500000 0.260937 0.496875 0.257812 0.496875 0.254688 0.495312 0.253125 0.496875 0.251563 0.496875 0.248438 0.496875 0.250000 0.495312 0.251563 0.493750 0.250000 0.493750 0.248438 0.493750 0.250000 0.492188 0.251563 0.490625 0.250000 0.490625 0.245312 0.489063 0.245312 0.487500 0.243750 0.489063 0.242188 0.490625 0.242188 0.489063 0.242188 0.487500 0.240625 0.487500 0.239063 0.485938 0.239063 0.484375 0.237500 0.484375 0.234375 0.482812 0.234375 0.484375 0.235937 0.482812 0.237500 0.481250 0.237500 0.479687 0.235937 0.479687 0.234375 0.478125 0.234375 0.476562 0.232813 0.478125 0.231250 0.479687 0.231250 0.476562 0.228125 0.476562 0.226562 0.475000 0.225000 0.475000 0.223438 0.473438 0.225000 0.468750 0.225000 0.467187 0.223438 0.467187 0.218750 0.465625 0.217188 0.462500 0.217188 0.459375 0.214062 0.460938 0.212500 0.459375 0.210938 0.460938 0.209375 0.457813 0.209375 0.456250 0.210938 0.454688 0.209375 0.454688 0.206250 0.453125 0.204687 0.454688 0.203125 0.456250 0.203125 0.454688 0.201563 0.453125 0.201563 0.450000 0.204687 0.448437 0.204687 0.446875 0.203125 0.448437 0.201563 0.446875 0.203125 0.443750 0.200000 0.443750 0.198437 0.440625 0.198437 0.439063 0.196875 0.440625 0.195312 0.443750 0.195312 0.440625 0.195312 0.439063 0.193750 0.435937 0.193750 0.432812 0.196875 0.431250 0.195312 0.428125 0.195312 0.425000 0.192188 0.425000 0.190625 0.421875 0.187500 0.425000 0.190625 0.423438 0.192188 0.421875 0.192188 0.418750 0.189062 0.418750 0.187500 0.417187 0.187500 0.415625 0.189062 0.414062 0.187500 0.410938 0.187500 0.406250 0.182812 0.407813 0.181250 0.406250 0.181250 0.404687 0.182812 0.403125 0.181250 0.403125 0.179688 0.401562 0.181250 0.400000 0.179688 0.392188 0.179688 0.390625 0.178125 0.390625 0.176563 0.389062 0.175000 0.390625 0.173437 0.389062 0.171875 0.387500 0.171875 0.385937 0.173437 0.384375 0.171875 0.382812 0.171875 0.382812 0.173437 0.381250 0.175000 0.379688 0.173437 0.379688 0.171875 0.378125 0.170313 0.378125 0.168750 0.375000 0.171875 0.371875 0.168750 0.368750 0.168750 0.367188 0.167187 0.368750 0.165625 0.378125 0.165625 0.370312 0.165625 0.368750 0.164062 0.367188 0.164062 0.365625 0.165625 0.364063 0.164062 0.362500 0.164062 0.362500 0.165625 0.360938 0.167187 0.357812 0.167187 0.356250 0.165625 0.354687 0.165625 0.353125 0.167187 0.351562 0.165625 0.351562 0.164062 0.350000 0.164062 0.348438 0.165625
